x,y,z,phi,theta,psi,u,v,w,p,q,r
1.9995827822401318,2.9996746660105367,1.9996193469584587,9.809212912713247e-27,-2.4945387598874307e-24,0.0,2.243114751209614e-24,-0.008312784559744817,-0.007583869754746462,-0.0022422750782700018,-0.032362371032809076,-0.01957597610406007
1.9979812897369347,2.9984254981409073,1.9984905168597011,7.44885105243821e-27,-1.1330303866511113e-24,0.0,1.2427497881989668e-24,-0.023658021396429373,-0.014945599007030616,-0.006241236128808213,-0.09034799938990958,-0.057160093464339416
1.994550405097555,2.9957471620728118,1.9966424286165607,1.55343291008804e-26,-1.673383736545957e-26,0.0,6.124874451825956e-25,-0.0448744736386878,-0.021934438936669576,-0.011562604342270978,-0.1639921033570763,-0.11027507292844711
1.9887565022460112,2.99121764134385,1.9941235132739243,1.1755402391852184e-27,-3.4012939732054983e-25,0.0,3.853452339975708e-25,-0.07088736954622098,-0.028317655551748512,-0.01783112842318923,-0.24157642052271203,-0.17543966909268588
1.9801710150679561,2.984489287962091,1.9910072883321872,7.871026694060404e-27,-4.427404047012476e-25,0.0,4.0867705549456665e-25,-0.10066440446450399,-0.033838622917476746,-0.02470941321459944,-0.3129515204036073,-0.24853327216509652
1.9684677836010613,2.9752811280756917,1.9873912275600771,3.1124320859010677e-27,-2.5019778393928796e-25,0.0,3.6833974101442083e-25,-0.1331891097664015,-0.038285133384491216,-0.03185022005230926,-0.37214558464576986,-0.32554030128989636
1.9534213427486977,2.9633726231483455,1.9833900223738767,1.8367738478485206e-27,-1.5466368657526106e-25,0.0,2.710400855695229e-25,-0.1674690635104298,-0.04152852787858228,-0.0388281429869866,-0.41764470512527935,-0.4032848739795394
1.9349029805582587,2.9485987229433506,1.9791271426252381,-5.39157675494932e-27,-9.819627606894248e-26,0.0,2.216525001712596e-25,-0.20256882653185992,-0.04351887614368953,-0.04501546956675214,-0.45096392376939287,-0.4797634479418908
1.912866561122748,2.9308461682070512,1.9747671820291637,-9.97331396320225e-27,-7.884413124999289e-26,0.0,1.7832347394694415e-25,-0.23778002681741556,-0.043363991708590094,-0.012832361117791435,-0.4779809886884428,-0.5540150675304704
1.8873372414169676,2.910049564303809,1.9705624157963768,-5.7986587349048264e-27,-8.129303427369489e-26,0.0,1.6220605187834532e-25,-0.27238618076363247,-0.04026643243889579,0.056241456217603916,-0.5012642885663009,-0.6257314939806214
1.8584063615714117,2.8861853647014173,1.9668551934289675,-1.0232645405067825e-26,-6.667383978948809e-26,0.0,1.6366916426101052e-25,-0.30578268286105326,-0.03324124805653784,0.15499808630149844,-0.523878718169783,-0.6947849866820396
1.826219854673275,2.8592601068809183,1.9640882472738554,-2.4446992509497704e-26,-8.87529812225776e-26,0.0,1.133928007816612e-25,-0.33748407079054066,-0.02130562152214385,0.2685942623194354,-0.5491941517228457,-0.7610399230110726
1.7909661106980626,2.8293005564285907,1.962793573616856,-1.5528593316635212e-26,-3.612657813124156e-26,0.0,9.089536798038213e-26,-0.36712804734241405,-0.0036832897872774856,0.3807561335136792,-0.5805421833675738,-0.8243156181569191
1.7528635226903115,2.79635023575888,1.9635665221078162,-2.1121535422422193e-26,-7.465664825315356e-26,0.0,1.1982892713271846e-25,-0.39447783589034113,0.02010371759134,0.48035301029482713,-0.6207221229529243,-0.8843995912457894
1.7121479087826077,2.7604711312229218,1.9670297890061312,-2.9528096828858733e-26,-7.897172225093456e-26,0.0,8.464619720000804e-26,-0.4194219523909456,0.05010756348081015,0.5637717833838948,-0.6714329588455662,-0.941068557221078
1.6690602475783411,2.7217459829382635,1.9737936406040402,-2.7545916878344256e-26,-8.250333598955226e-26,0.0,9.43255098926642e-26,-0.44196719789517686,0.08606483344531758,0.6326901604936155,-0.7328634041460443,-0.9941226380648903
1.6238356326530428,2.680277965827796,1.9844322788849609,-2.2825997450251796e-26,-6.868929561700991e-26,0.0,8.479625550047993e-26,-0.46222116351180903,0.12752465830196502,0.6907178154991854,-0.8037839752434656,-1.0434295081410954
1.5766944529675138,2.6361876470678136,1.9994664097393091,-3.5254107386738934e-26,-3.384354913336823e-26,0.0,6.763326405274929e-26,-0.4803657460070032,0.17386755703563073,0.7412471498424855,-0.8819844358955166,-1.0889569560909744
1.5278364991763227,2.5896085845579733,2.019346170647092,-4.9214290877527804e-26,-2.782509872843547e-26,0.0,6.5301176703818e-26,-0.4966260208642251,0.22430085670776562,0.78669736481878,-0.9648311256846535,-1.1307785597122049
1.4774381852067695,2.540682836573457,2.044433992993926,-5.216841244979927e-26,-2.3120781337460283e-26,0.0,7.340472918387111e-26,-0.5112399420375681,0.2778664203219495,0.8285203304358498,-1.0497370959344912,-1.169054283770923
1.4256525753016738,2.489557109040619,2.074989589400068,-8.919360030156422e-26,2.0765088511146868e-25,0.0,3.1589159272102583e-25,-0.5244330463073488,0.33347619268027645,0.8674523273203759,-1.1344388394784541,-1.2039975094416686
1.3726116056049598,2.436379830517705,2.111159814563186,-1.0026140736126873e-25,2.738245156963602e-25,0.0,3.269011960660456e-25,-0.5363999939920977,0.3899725467064182,0.9037728058760179,-1.2170916045476805,-1.2358398748177497
1.318429802662929,2.3812991868748434,2.1529753031907415,-9.771541263878648e-26,3.062338582234061e-25,0.0,3.0109873340604336e-25,-0.5472930267447413,0.4462010931052347,0.9375010740377324,-1.2962553501982343,-1.2648010230820912
1.2632088366123615,2.3244620074737616,2.2003544220214373,-9.507233969288437e-26,3.5398269684426346e-25,0.0,2.530782449659116e-25,-0.55721669346849,0.5010819387962148,0.9685292200829786,-1.3708390923862257,-1.2910664223441801
1.2070423240692019,2.2660133230117507,2.2531137788466404,-9.227472626699175e-26,4.0801813793848194e-25,0.0,2.197529717638669e-25,-0.5662279829646032,0.5536680098213426,0.9967064104164293,-1.4400408247318113,-1.3147740688032732
1.150020390119674,2.2060963880121425,2.310983610797372,-9.08053519649789e-26,4.456657003820105e-25,0.0,1.7757258668521193e-25,-0.5743408249049342,0.6031835819896516,1.0218891907303658,-1.5032951467754299,-1.3360096108023292
1.0922336136909219,2.1448529665693425,2.3736259352190148,-7.951063172617351e-26,4.765990197179345e-25,0.0,1.2851627605735357e-25,-0.5815337007536069,0.6490410466739092,1.0439685414892588,-1.5602293281926245,-1.3548086161024477
1.0337761143164912,2.0824237096817324,2.4406533651394002,-7.324951195942812e-26,4.674387397029181e-25,0.0,1.0586004522961222e-25,-0.5877589775285375,0.6908380721289447,1.0628812730733106,-1.6106259581502111,-1.3711641437872761
0.9747476754269078,2.0189484956423835,2.5116468553619127,-6.807971114216415e-26,4.701867072359892e-25,0.0,5.735668489570764e-26,-0.5929526408900224,0.7283399880170652,1.078611297668772,-1.65439082311452,-1.3850375212525414
0.9152549206808828,1.9545666522168668,2.5861711910526126,-6.322321503128552e-26,4.788339074212304e-25,0.0,-2.0964508989170993e-27,-0.5970433504868474,0.7614532254222554,1.0911849321767184,-1.6915254202369305,-1.3963703088573884
0.8554116504896578,1.8894170220108408,2.6637876045207487,-5.1685271123455257e-26,4.868567783344344e-25,0.0,-4.481180071297672e-26,-0.5999600909532723,0.7901952634159074,1.1006632961388307,-1.7221038514239302,-1.405095799844251
0.7953385002091391,1.8236378658462429,2.744063394235016,-4.1339794715067234e-26,4.971798764271435e-25,0.0,-8.89996689105092e-26,-0.6016380544239027,0.8146653066270286,1.1071339267290996,-1.7462538676680215,-1.4111489232641834
0.7351621018943053,1.7573666214152504,2.8265787672661036,-2.949659844665608e-26,4.967466185784654e-25,0.0,-1.4319738831989548e-25,-0.6020226973392727,0.8350184025882006,1.1107029305461422,-1.7641417235508894,-1.414473952451165
0.6750139255908302,1.6907395468912412,2.910931325149013,-1.6716185160507263e-26,4.998230368849135e-25,0.0,-1.9629223797113555e-25,-0.601072131730463,0.8514443127195992,1.1114883588224962,-1.775960391663916,-1.4150298721090158
0.6150289531595491,1.6238912835884747,2.9967386884889926,-3.927334474131188e-27,4.8276743419267765e-25,0.0,-2.458865512563988e-25,-0.5987581354323105,0.8641513904957305,1.1096150412195342,-1.7819206202813096,-1.4127935746723355
0.5553443063514715,1.5569543708503548,3.0836397440460903,9.178858939903056e-27,4.620170702773474e-25,0.0,-2.953472593660522e-25,-0.5950661114666852,0.8733550457771126,1.105210828970626,-1.7822443038825218,-1.4077612377046642
0.49609791794901315,1.4900587422622766,3.1712949365477363,2.1619856813392272e-26,4.220577975727334e-25,0.0,-3.4630591393676164e-25,-0.5899943170479385,0.8792700344106764,1.0984040478133148,-1.7771596671699337,-1.3999483031039872
0.4374273046888264,1.4233312268098204,3.2593859449208384,4.008788008743252e-26,3.795798539085947e-25,0.0,-3.9164979936903795e-25,-0.5835526400892347,0.8821057152525176,1.0893219054944747,-1.7668978225374916,-1.3893884700330705
0.3794684756623834,1.356895072872825,3.347614998568749,4.948976632438548e-26,3.1470945073825967e-25,0.0,-4.239472026592339e-25,-0.5757611443146948,0.8820634691703039,1.0780896014070398,-1.751690332994415,-1.3761320599045617
0.3223549907506997,1.290869507668739,3.435704014736177,5.472524778258855e-26,2.5186967321489748e-25,0.0,-4.53059796202352e-25,-0.5666485460288141,0.8793356008331884,1.0648299202279117,-1.7317674880025888,-1.3602440397449294
0.2662171699421929,1.2253693402031474,3.5233936774913666,5.389138515588545e-26,1.753838866298425e-25,0.0,-4.661904247128815e-25,-0.5562507336837844,0.8741051934609635,1.0496631355236952,-1.70735706619023,-1.3418019163294064
0.2111814455296092,1.1605046121482778,3.610442533102594,4.9791203121636177e-26,1.2294301378859573e-25,0.0,-4.541995609382906e-25,-0.5446093992356561,0.8665465278978451,1.0327070962725513,-1.6786834196294673,-1.3208936485526874
0.15736984390999845,1.0963802982257858,3.6966261439142474,5.60728166124678e-26,5.174460014197813e-26,0.0,-4.832050005549096e-25,-0.53177081842153,0.8568257972993529,1.0140774065622464,-1.645966756753071,-1.2976156720078977
0.10489958123205557,1.0330960556080924,3.7817363208289247,6.116603551602927e-26,-3.0383486643053124e-26,0.0,-5.017590036965053e-25,-0.5177847945740341,0.8451019418407162,0.9938876421192604,-1.6094225399106452,-1.2720710902144967
0.05388275642299897,0.9707460203729832,3.865580440591772,6.179924848519502e-26,-1.0204737028663055e-25,0.0,-4.978134572709406e-25,-0.5027037659651236,0.8315274966986614,0.9722495682221406,-1.5692609322594808,-1.2443680579188066
0.004426125640994462,0.9094186481098442,3.947980845911785,5.328493556644996e-26,-1.8262571821631142e-25,0.0,-5.143044034602713e-25,-0.4865820678874327,0.8162493940718736,0.949273341178628,-1.5256862477641397,-1.2146183635126573
-0.04336905669140441,0.8491965952017895,4.028774322239378,4.7732944580398095e-26,-2.651858116689867e-25,0.0,-5.445233104965293e-25,-0.4694753362918966,0.7994096915637835,0.9250676860745484,-1.478896364903347,-1.1829362061620923
-0.08940714370522372,0.790156637043403,4.107811643311181,4.3225018848005655e-26,-3.50215523928564e-25,0.0,-5.388422624420049e-25,-0.4514400384475488,0.7811462190091036,0.8997400494778596,-1.4290820647733167,-1.1494371574014972
-0.13359816075441142,0.7323696193977995,4.184957177415198,3.3894634841911284e-26,-4.600071633853557e-25,0.0,-5.415269962253259e-25,-0.43253311667755406,0.7615931472458424,0.8733967315048217,-1.3764262538005156,-1.1142372959128386
-0.17585783964063642,0.6759004391943988,4.260088547027457,5.323752849277679e-27,-5.96070157350257e-25,0.0,-5.081086891120166e-25,-0.41281173337861116,0.7408814886662609,0.846143005388594,-1.3211030234937666,-1.077452506457353
-0.21610763209753803,0.6208080512563728,4.333096335644585,-1.0493690992192413e-26,-6.549062699112538e-25,0.0,-5.814594163502473e-25,-0.39233310918729297,0.7191395427407191,0.8180832381914009,-1.2632764908294298,-1.039197939906705
-0.25427471173796595,0.5671454976832916,4.4038838370755835,-1.948916627316828e-26,-7.405170336668706e-25,0.0,-6.327808792511313e-25,-0.3711544524359199,0.6964933020588452,0.7893210373412554,-1.2030993647669161,-0.9995876427250091
-0.2902919741633897,0.5149599568385717,4.472366844203745,-2.8661335907411596e-26,-8.49933681124677e-25,0.0,-6.52554362921829e-25,-0.34933299180947686,0.6730668383598619,0.7599594698074512,-1.1407112182354338,-0.9587343841544491
-0.3240980480202641,0.464292809051481,4.5384734766064545,-4.5620832246831186e-26,-9.65949966453531e-25,0.0,-7.196427633079703e-25,-0.3269261627613428,0.6489826982705437,0.7301014514299805,-1.0762366514562356,-0.916749750886067
-0.355637334827308,0.41517971618239724,4.60214404923924,-8.152240287175523e-26,-1.1270057280995256e-24,0.0,-7.845660292517967e-25,-0.3039919942219454,0.6243623299475684,0.6998502724767267,-1.0097830011192273,-0.8737446211649984
-0.38486007507125425,0.3676507131829697,4.663330979049267,-9.445023669443794e-26,-1.2799219886800387e-24,0.0,-8.331319913823767e-25,-0.2805892234113775,0.5993263875564918,0.6693093374462565,-0.941429255405734,-0.8298299884552378
-0.41172249311681214,0.3217303106891414,4.721998724486407,-7.439941071254283e-26,-1.503733914758485e-24,0.0,-9.257145970140431e-25,-0.2567787757647695,0.5739951360877875,0.6385831688905654,-0.8712214464587777,-0.7851187516940914
-0.4361871821373436,0.2774376074175245,4.778123772900535,-8.556460837989514e-26,-1.6964623656984335e-24,0.0,-1.0513762701236167e-24,-0.23262712551001744,0.5484890322038769,0.6077755288405774,-0.7991826163839865,-0.7397294613799344
-0.458223821347595,0.23478641508137033,4.831694677855429,-9.397281372769145e-26,-1.9506951802455998e-24,0.0,-1.1921285169794252e-24,-0.20820957466491907,0.5229290728251582,0.5769817892791098,-0.7253182610615455,-0.6937918423971959
-0.47781002226747815,0.19378540280368822,4.882712104846201,-1.0154603147191877e-25,-2.317264058830216e-24,0.0,-1.3821272369251331e-24,-0.18360954204343508,0.4974365310436302,0.5462804618604872,-0.6495959118024741,-0.6474508772060587
-0.4949321408101493,0.15443826922978993,4.931188827579543,-1.097053110686916e-25,-2.8018205293495842e-24,0.0,-1.665216859593745e-24,-0.15891860194543916,0.47213229613426905,0.515727067957596,-0.5719228953946651,-0.6008693676427594
-0.509585908812022,0.11674394576292743,4.977149649786321,-1.2633234688463887e-25,-3.1951320220172525e-24,0.0,-2.112342000147737e-24,-0.1342328227306265,0.4471360315804753,0.4853515587878208,-0.4920887939654323,-0.5542292719881098
-0.5217767494017321,0.08069683178215897,5.020631252119075,-1.2652930754078683e-25,-4.1492481920575874e-24,0.0,-2.552054139803707e-24,-0.10965014457201858,0.4225656233405712,0.4551593477107628,-0.4097005750376686,-0.5077301481831102
-0.5315198422246811,0.046287060210019666,5.061682015815124,-1.454413934335729e-25,-5.098019537634112e-24,0.0,-3.507961507527574e-24,-0.08526801339974685,0.3985373272100961,0.42513402788819177,-0.3240759796748404,-0.4615914746717046
-0.538839977102133,0.013500788695066428,5.100361914346424,-1.3487741427007894e-25,-7.272291351196418e-24,0.0,-5.177788742235398e-24,-0.061181553837423595,0.3751670699796385,0.39524212798051095,-0.2340588939843434,-0.4160519306066931
-0.5437712391029492,-0.01767948855777497,5.136742621638972,-1.1993572110302976e-25,-1.1429597113658002e-23,0.0,-8.271813216634867e-24,-0.037482131646938706,0.35257364591949086,0.36543972768069016,-0.13766001486579335,-0.3713688143858245
-0.5463566629872796,-0.047274612841450965,5.17090809686527,-1.2180850605110538e-25,-2.955546042381288e-23,0.0,-2.1488939816959692e-23,-0.014258563205305672,0.33088544358998523,0.33568095733268366,-0.03135165060225931,-0.3278250801647842
-0.5466478315603046,-0.07530842164977347,5.202956152691912,-1.2571839612434276e-25,5.163130369498286e-23,0.0,3.764346844819979e-23,0.008419479011506416,0.31025418756233014,0.3059277556111571,0.08933961693774428,-0.28573662630682684
-0.5446968774949361,-0.10180737957698734,5.2330016275401,-1.3043941816977355e-25,1.3751413743599203e-23,0.0,1.0389155482721476e-23,0.03060781685067032,0.2908674412735787,0.2761434058967908,0.21301842684247982,-0.2454050679422289
-0.5405531861394633,-0.1268001492393273,5.2611780669933,-1.3214144768543477e-25,7.994804994739701e-24,0.0,6.1871707051281325e-24,0.052265805960725546,0.2728967574265373,0.24625645170286894,0.3215140814696501,-0.20712826438252013
-0.5342783466439218,-0.1503171795852445,5.287631905987229,-1.3250439135665937e-25,5.467296363008359e-24,0.0,4.707413007247808e-24,0.07319847325187749,0.25641942033472825,0.2161318391309319,0.4056698542167921,-0.17135172276307234
-0.5259584233761173,-0.17239026632776522,5.312511582918166,-1.4937573539168584e-25,4.259932999681438e-24,0.0,3.808120642969314e-24,0.09312763751291127,0.2414005282145215,0.18558495279661538,0.46543622596518147,-0.1387316948476869
-0.5157074666716284,-0.19305196601162591,5.335957667972696,-1.4800399783362967e-25,3.411679238771751e-24,0.0,3.3995855331611135e-24,0.11178558836502371,0.22772486320552796,0.15439806038689752,0.5054341287268997,-0.11028563474599813
-0.5036631260406085,-0.21233491457930723,5.358097004326398,-1.425330026127053e-25,2.8813462903087226e-24,0.0,2.922294384251447e-24,0.12897341030969253,0.2152395471511646,0.12233624897585221,0.5310529426884071,-0.0868578049299117
-0.48997890086712625,-0.23027136246520846,5.379040607003765,-1.487355741592045e-25,2.4210286861519943e-24,0.0,2.6468862808811583e-24,0.14457257272750063,0.20378468958818005,0.08914586218185636,0.5466783665532856,-0.06841697033651395
-0.4748167424586777,-0.24689282371772955,5.398883842766527,-1.4611226682942097e-25,2.1275938751166468e-24,0.0,2.3643091975647758e-24,0.15853006345650567,0.19320869975164737,0.05448301413581716,0.5553725568895944,-0.0550154770620818
-0.45834133228957497,-0.2622296365866357,5.4177075719886,-1.437039988763987e-25,1.915252785464855e-24,0.0,2.2408870047132815e-24,0.1708417213362396,0.18337337805781095,0.017863057766319128,0.5591334407204797,-0.04671750673216181
-0.4407159585654874,-0.27631064964214186,5.435579529296816,-1.3650208603001015e-25,1.8138938817755373e-24,0.0,2.1782409867829387e-24,0.18153753811679638,0.17415436642945353,-0.02133247082802123,0.5592348898342566,-0.043545890574917194
-0.4220996855673147,-0.28916243271537345,5.452555911766054,-1.3446781592637356e-25,1.6681283264429903e-24,0.0,2.124090804125774e-24,0.19067053653224322,0.16544838353582036,-0.06223017483929893,0.5564944870011089,-0.04543832010199999
-0.4026454698057315,-0.3008076484097633,5.468684500453643,-1.3076702816298596e-25,1.5462360859520424e-24,0.0,2.0597268344276668e-24,0.1983088286710694,0.15719179456036156,-0.10249797941465191,0.5514588632577005,-0.05221198814740778
-0.38249894481945906,-0.3112652362695247,5.484008516963772,-1.252413047254464e-25,1.4666566194897756e-24,0.0,2.0413840118548365e-24,0.20453004790914278,0.14935455107113244,-0.14008635298903313,0.5445220083649103,-0.06352826498358027
-0.36179767844020494,-0.32055146380515176,5.49856922898616,-1.2423747994247972e-25,1.4068036615199427e-24,0.0,2.0531450639165515e-24,0.20941735715620516,0.14192522799248494,-0.17355594926066167,0.5359909832380058,-0.0788668926629256
-0.34067077301106297,-0.32868108044308025,5.5124071482935,-1.1943612426986778e-25,1.3806081822533336e-24,0.0,2.0438647749398717e-24,0.21305651569049794,0.13489831821458093,-0.20216306394616473,0.5261187197423092,-0.09752572699938383
-0.31923872075382215,-0.3356683999173304,5.525562155309834,-1.1557660077255159e-25,1.371489865480421e-24,0.0,2.050310447317924e-24,0.21553367179627725,0.12826564062381585,-0.22577283019715053,0.5151186259209715,-0.118651620906683
-0.2976134517522092,-0.3415282220492587,5.5380729860478946,-1.0585849664977128e-25,1.3235535413191155e-24,0.0,2.0695280055409694e-24,0.21693369669363471,0.12201209938074135,-0.24467886545718823,0.5031706097393376,-0.1413022591875432
-0.2758985256381517,-0.3462765549489155,5.5499764764693325,-1.0714508399395213e-25,1.3143038791396503e-24,0.0,2.1033400934316156e-24,0.21733896389469537,0.1161148575492158,-0.2594132636825865,0.49042411867479596,-0.1645302246286132
