x,y,z,phi,theta,psi,u,v,w,p,q,r
2.000196592827917,2.9999371034073716,1.9995341911656976,3.1402943657068096,-0.001426013042265195,-0.0006256356813258558,0.003910829955839209,-0.0012471237841600365,-0.009279245299175272,-0.012377939385063081,0.02850192702628742,0.02580750873396181
2.0007647314085664,2.9997534972023963,1.9981589645822704,3.136620616581288,-0.005534874504947274,-0.0023463050565018873,0.007333766348121646,-0.002344392097993849,-0.0181433064171864,-0.0219885843059899,0.05378283025977194,0.04755694473316097
2.001669800426145,2.999455426778673,1.9959115865033423,3.1309918393463936,-0.012100341696405836,-0.004827386768803174,0.01032058004237964,-0.0033113560216670524,-0.02658931509228587,-0.028236399811582814,0.07756982291140847,0.06523730414592546
2.002887972577114,2.9990449346388233,1.992827968384241,3.123820576361683,-0.02106363295321101,-0.007686406977511693,0.012919697552211878,-0.004164486049569367,-0.03461596124162141,-0.030907867419358998,0.10147819422582026,0.07906226703189906
2.0044051489280585,2.998522180550573,1.9889433459251191,3.115489977306073,-0.032516030543979335,-0.010535195041858467,0.015177748582463178,-0.004917476912320983,-0.04222222690031065,-0.030143765044362114,0.12696595956483836,0.08939117224443802
2.0062166681084577,2.9978872197880557,1.9842927598220965,3.1063405992448185,-0.04667996056208312,-0.013014852964230925,0.01714097026284542,-0.005581593603500921,-0.049406745747729956,-0.02637261175906924,0.1552979940981356,0.09665511488748789
2.0083275614253697,2.9971411409409914,1.9789114253491982,3.096663629374836,-0.06388851807519136,-0.014821753776149098,0.01885667358313916,-0.006166170858868386,-0.05616754464548754,-0.020231565596096273,0.18750387285385559,0.10129958566247045
2.0107531350884784,2.9962865291615812,1.9728350863575668,3.0866982179567644,-0.08456181756414605,-0.015724849298501098,0.020374787878949776,-0.006679298212717845,-0.06250196316106868,-0.012492398574092286,0.22432610048944537,0.10374669592472903
2.0135196392879546,2.995327281916948,1.9661004411337561,3.0766310206984704,-0.1091785413532611,-0.015575556304458173,0.021749299554961556,-0.007128645059506163,-0.06840658372852883,-0.003999849370346767,0.2661679553433427,0.10437501536339222
2.0166647419046737,2.9942678575532926,1.9587457021438286,3.0665968645091675,-0.13824241998767928,-0.01431161568631731,0.023039242197926538,-0.007522364301631086,-0.07387702923432647,0.0043744145925727895,0.3130594611855469,0.10351301192507127
2.0202374809238073,2.993112047036913,1.9508113064935515,3.056680292973593,-0.17224537070719315,-0.01195875571362694,0.024308848565367767,-0.007870507625298916,-0.0789075283898324,0.011711706808518619,0.3646614666265358,0.10144207883170099
2.0242973480821855,2.9918613882757805,1.9423407363053724,3.0469184245194394,-0.21163084621429196,-0.008630379064206224,0.025626600168989343,-0.008185126908849674,-0.08349017389443414,0.017148229562868888,0.4203181464100917,0.09840568522446365
2.0289121620312294,2.990513586686849,1.9333813712623407,3.037305341338959,-0.25676225456159707,-0.004510512056404284,0.027063184367480723,-0.008479499595166078,-0.08761377317465831,0.020029829815144114,0.47915035186927096,0.09462167883859965
2.0341544793373356,2.989061182913671,1.9239852531397064,3.027797415931107,-0.30790018090083615,0.00017288261221248366,0.028688671289874648,-0.008767955784070462,-0.09126244401506693,0.019953998336119036,0.540165293562716,0.09029515177699662
2.0400964133287056,2.987490633998299,1.914209607507726,3.0183184519257913,-0.3651896953388645,0.005176744997141794,0.030569386762189628,-0.009065729612563396,-0.09441421266015886,0.016763124709660335,0.6023521944257364,0.0856293097161743
2.046802874269546,2.985781918907974,1.904116956934094,3.0087631893314986,-0.4286564724397146,0.010269991163677938,0.03276490666519427,-0.009388805658797914,-0.09703990340288052,0.010501724049698562,0.6647425635603132,0.0808320081692795
2.05432340639641,2.983908700065079,1.8937746700428943,2.998997655379383,-0.4982088374828366,0.015256623036925014,0.03532539831851571,-0.009753747092214063,-0.09910260141392449,0.001352391114571054,0.7264310763512499,0.07611643507664169
2.0626829891001925,2.9818390129250036,1.8832538205000087,2.988854748230803,-0.5736428636069979,0.019995522363739953,0.03828932850353006,-0.01017718106908712,-0.10055791866953925,-0.010401075365436354,0.786567972841656,0.07169573590384697
2.071872397634028,2.9795365790094253,1.87262730296813,2.978122164139695,-0.6546511391249882,0.024431591315681234,0.04168146109865291,-0.010673450293459251,-0.10135511115186917,-0.02423142648726956,0.8443404220259065,0.06777268883123946
2.0818390178417476,2.9769628487100013,1.8619672740054705,2.9665158038053714,-0.7408360610371353,0.02864425599292743,0.04551111219427223,-0.011254435379367154,-0.10143908122949888,-0.039477375322848555,0.8989588253227131,0.06452646323129367
2.0924793005498925,2.974079441734952,1.8513420557586995,2.9536267418357522,-0.8317229429494098,0.032903085859698526,0.04977073612470395,-0.011930044035836973,-0.10075341691419562,-0.05551002169147831,0.9496545389478512,0.062099036572674904
2.1036341826600267,2.9708507333379686,1.8408127411437707,2.938815674101915,-0.9267710147152463,0.037762230777847204,0.05443498401610335,-0.012708410841801986,-0.09924431680661883,-0.07184184299506553,0.9956884378490639,0.06058366086559024
2.11508881259411,2.967246316142698,1.8304298408017623,2.9209876368303935,-1.0253796917353746,0.044265113613838315,0.059460413736270666,-0.013596093620015614,-0.09686516001077332,-0.08820234768106627,1.0363671441963545,0.06001725898998312
2.1265776964256986,2.9632430711677555,1.8202303802988493,2.8980512580002076,-1.126886149781649,0.05445951340690238,0.06478599212044019,-0.014598132154726856,-0.09358143010927204,-0.10456596492512782,1.0710631779809405,0.06037824036920846
2.1377958973679765,2.958826638016776,1.8102358831412304,2.8653807967954306,-1.230543112708647,0.07290948742475192,0.07033450021323241,-0.015717918718959705,-0.08937559686485966,-0.12113247543911981,1.0992362724449114,0.061590115580141956
2.1484161921307217,2.9539921664684177,1.8004516453985167,2.8101723447935236,-1.3354235139452388,0.11231653901034995,0.07601487950601094,-0.016956917133338266,-0.08425152716979509,-0.13827236322966557,1.1204540629830984,0.06353052411376975
2.158111184957321,2.9487443460607925,1.7908676085280897,2.6791269303277137,-1.4398449136407843,0.2258195091640665,0.08172548221241054,-0.01831431684469206,-0.0782379949677138,-0.1564545913476425,1.1344109059700525,0.06604440542818164
2.1665784408761324,2.9430968281968135,1.7814609647284407,1.8753793586395566,-1.5306644234478166,1.0100550609470977,0.08735810838146003,-0.01978671528947775,-0.07139089969328283,-0.1761728419039287,1.1409436255067187,0.06895935967756756
2.173565913640419,2.937071253577551,1.7722003957049968,0.17331216645613287,-1.4772740863856586,2.6903390353132357,0.09280262793831824,-0.021367899366388842,-0.06379388962841395,-0.19788110264017736,1.1400428358407322,0.07210094137240805
2.1788945144966085,2.930696151131889,1.7630515832898097,-0.041687169312344,-1.376143764251653,2.8809097262495724,0.09795190261192514,-0.023048764178844893,-0.055557227982464014,-0.22194376164605903,1.1318584325837004,0.07530578502636023
2.1824747525460793,2.924005964663016,1.7539833872733834,-0.11680489511916557,-1.274494750441408,2.9285113811309764,0.10270666876310677,-0.02481737488464228,-0.04681488597475714,-0.24860089784545547,1.1166981545040338,0.07843098229351181
2.184315032220617,2.9170403860036536,1.744973916556146,-0.16048408130823535,-1.1749223725645017,2.9410859156833786,0.1069800149977023,-0.02665915667698541,-0.037720028348491225,-0.2779472350710336,1.0950186836256766,0.08135894690493446
2.1845203306086187,2.909844042503838,1.7360156705726475,-0.19301282762929844,-1.0783378185471915,2.938373223523244,0.11070111130218277,-0.028557188340334876,-0.028439210432835517,-0.30992282553053097,1.067409520970584,0.08399782977469203
2.1832813893956056,2.9024664375314555,1.7271190204145386,-0.22099035521379243,-0.9853222722855186,2.9263927723263836,0.1138179147977952,-0.030492575376341115,-0.019145725320855112,-0.34431427828946953,1.0345706500501082,0.0862782257146296
2.180855952375377,2.8949619192225184,1.7183135242250578,-0.24727401220911463,-0.8963004572508695,2.907409464288326,0.1162986811115724,-0.0324448842791983,-0.010012607979017065,-0.3807662618572646,0.997285611304531,0.08814731740540069
2.1775446775545717,2.887389396626831,1.709646889500789,-0.2733520951648341,-0.811585922824243,2.8823285108499967,0.11813223290845151,-0.034392623409842955,-0.0012058150106475064,-0.4188032292337073,0.9563919867830851,0.08956169944199162
2.173664996396054,2.8798115212661166,1.7011817838347056,-0.30010601038768486,-0.7314042171713694,2.851482514266576,0.11932704711636845,-0.036313759554588244,0.007117767677896896,-0.45786048532752577,0.9127511155660801,0.09047997014080174
2.1695267725220404,2.8722927055478213,1.6929914948583449,-0.32810291822841975,-0.6559128238061622,2.814951387440905,0.11990918301617598,-0.03818632760395258,0.014796539731257708,-0.4973223528980856,0.8672159545057553,0.09085583802622399
2.165411408169934,2.8648964603896223,1.685154440938097,-0.35772067727214535,-0.5852211401056635,2.772716274593248,0.11991947876963714,-0.03998905002571135,0.021690084501284217,-0.5365628137315144,0.8206048898673183,0.09063209442632843
2.161555314015018,2.8576831908169438,1.6777472299641372,-0.38920388977287557,-0.519409097049963,2.7247454069221715,0.11941058535792844,-0.04170177190701314,0.02769312042132123,-0.5749831601475982,0.773685252069741,0.08973515232884739
2.158140007311435,2.850708114185938,1.6708379810774914,-0.4226888023248072,-0.45854251861447737,2.6710483949833392,0.11844383218117438,-0.04330577143337198,0.03273630941992609,-0.6120428814963521,0.7271601829758005,0.08806951915839208
2.1552888584719527,2.8440194745377374,1.6644808919449425,-0.4582136568004911,-0.40268372668399754,2.6117136851561833,0.11708608036260987,-0.044783963181091804,0.036784769854199977,-0.6472811074254416,0.6816598226367864,0.08551073501219204
2.153069482146874,2.837657281588628,1.658712571477186,-0.4957231438983593,-0.35189663826021134,2.546935119808504,0.11540673012935213,-0.04612101169858468,0.03983476615699331,-0.6803278064311762,0.6377372934672859,0.08189341870789828
2.1515002940805688,2.8316526961789497,1.6535502904144632,-0.5350725908539281,-0.30624707741734114,2.4770295535209264,0.11347495996650495,-0.04730339653933367,0.04190905672382298,-0.7109056642541811,0.5958690997870926,0.07698555503033414
2.1505596034421517,2.826028066874502,1.6489919807947444,-0.5760321689880724,-0.2657976231777266,2.4024444703369854,0.11135785314140123,-0.04831954498399053,0.043051909679390946,-0.738823868155736,0.5564617986607996,0.07054139316590727
2.1501957036977597,2.820797569188058,1.6450176432882246,-0.6182868216907017,-0.23059139430063746,2.3237535141821053,0.10911966106476154,-0.049159813132755664,0.04332491374029249,-0.7639691021615898,0.5198638380284135,0.06247363834517776
2.150336769350069,2.8159683402337365,1.6415917997240894,-0.6614417855931877,-0.20062969864957925,2.241642009737233,0.10682017978785793,-0.049816492387288074,0.042801965176717485,-0.7862974668919961,0.4863689948298449,0.052772174944081575
2.1508997935868166,2.811541896876618,1.638666556560655,-0.7050420330067056,-0.175854155797732,2.1568840158075306,0.104513812365162,-0.050283707003779286,0.041564807908747795,-0.8058220710885324,0.4562212916797346,0.04146623990099433
2.1517981036287583,2.807515636669292,1.636184862175899,-0.7486004625156942,-0.15613575955682513,2.070310917083182,0.10224908084369597,-0.05055722907214896,0.03969925784333003,-0.8225997715528097,0.42961975193257634,0.028614400580835118
2.1529472655588116,2.8038842736537513,1.634083646742295,-0.7916306968364881,-0.14127367758638876,1.9827745180744345,0.10006843941441967,-0.05063423879727023,0.0372921586499926,-0.8367187759661677,0.4067220534053129,0.014279741701197935
2.1542694018555606,2.800641107497832,1.6322966337611478,-0.833679797921053,-0.13100535156141913,1.8951091053090245,0.09800835282031757,-0.05051304794415986,0.0344290001303428,-0.8482880749900811,0.38764721202893626,-0.0014876898005766214
2.1556960788139903,2.7977790711040376,1.6307567082840728,-0.8743547965484918,-0.12502341096715797,1.8080969846585049,0.09609958243968506,-0.05019286460434173,0.031192184557984403,-0.8574289887173523,0.37247732965986663,-0.018539734481711322
2.1571699775636657,2.7952915426330094,1.6293978611108693,-0.9133358170658384,-0.1229716833599035,1.7224401039930566,0.09436761615152928,-0.049674141511874575,0.027659791022177634,-0.8642695805130499,0.36125336678903847,-0.03634088562531702
2.1586455923188184,2.7931729267414074,1.628156803175843,-0.9503896097262757,-0.12444361938182036,1.6387406416172487,0.0928331558630284,-0.04895880611081142,0.023904765143548706,-0.8689410706694513,0.3539603398157497,-0.05426833353996091
2.1600892294960716,2.791419017531112,1.6269741936173476,-0.9853826801019997,-0.12900434465930877,1.5574918483629876,0.09151258998453057,-0.04804995981570694,0.01999434127168473,-0.8715749999181057,0.3505126578847932,-0.07172520574399728
2.1614785205920635,2.790027183064938,1.6257954673015165,-1.0182837718247828,-0.13621639233665284,1.4790778183807212,0.09041845448531415,-0.046951510023311424,0.015989709287712043,-0.8723013891714372,0.35074550128818577,-0.08818168599835875
2.1628016144107582,2.788996419732668,1.6245713013022283,-1.0491560094327097,-0.14566372150809204,1.4037803673521014,0.08955987340167529,-0.04566780714587532,0.01194589769030991,-0.8712478761197302,0.3544139992945587,-0.103204483304188
2.1640561829199014,2.7883273190431814,1.6232577724578372,-1.0781412795577505,-0.15697072869330642,1.3317905701693415,0.08894296529655202,-0.04420332209880871,0.007911848385756141,-0.8685395584380461,0.3612010616849936,-0.11647067552587571
2.165248345024735,2.788021979872921,1.6218162655724842,-1.105440403437381,-0.1698143309754343,1.2632225327351974,0.08857120591641342,-0.04256239281330425,0.003930661636972348,-0.8642992376582995,0.37073324300563987,-0.12776614636184977
2.1663915847752073,2.788083888634374,1.620213194685656,-1.131292724727588,-0.1839288039774074,1.1981274920299883,0.08844574584759424,-0.040749060838456905,3.99889484177418e-05,-0.8586478041758381,0.3826024187504792,-0.13697204524192536
2.167505712356903,2.788517786461385,1.6184196194446627,-1.155958029119123,-0.19910440986300326,1.13650704532239,0.08856569424317698,-0.03876699420851511,-0.0037261461755518305,-0.85170464346416,0.3963900202898608,-0.14404423250892257
2.1686158633900416,2.7893295705028045,1.616411012008479,-1.1797026066422203,-0.21518164813689866,1.078324956619061,0.08892839791771094,-0.036619454189255114,-0.007333033203009117,-0.8435879795196927,0.4116908060309823,-0.14899041836392127
2.1697515828839937,2.7905261382394984,1.6141669953775497,-1.2027900905367295,-0.23204311939938838,1.0235174295554181,0.08952972743115518,-0.03430933739339072,-0.010749434969859934,-0.834415274938772,0.42813185073350307,-0.15184839034335681
2.1709460450867755,2.792115146201515,1.61167082876143,-1.225476679068263,-0.24960459822495418,0.9720019302004632,0.09036436750266873,-0.031839291122004475,-0.013948638828981844,-0.8243037406481715,0.44538449674243796,-0.15266718305304952
2.172235379634164,2.794104774450333,1.6089088604724522,-1.2480099341833075,-0.26780636556497384,0.9236847593622701,0.09142612328625017,-0.029211855967989177,-0.016907971200033033,-0.8133708209563011,0.4631699158014861,-0.1514914853663296
2.1736580939253756,2.796503512753397,1.6058699983271392,-1.2706302815739838,-0.28660530700075726,0.8784675934181356,0.09270824522200061,-0.026429628591486412,-0.019608273163045097,-0.801734719213615,0.48125906437675536,-0.14834851426037504
2.1752545828817214,2.7993199760626415,1.6025452194558054,-1.2935744977094386,-0.3059678249803568,0.8362532207792716,0.09420377691231219,-0.023495426620163032,-0.022033344025927017,-0.7895151152970067,0.49946845360675823,-0.14323576341831007
2.1770667169820235,2.8025627537428752,1.5989271397672993,-1.3170808098127786,-0.3258632797595056,0.796950720886565,0.09590594149477442,-0.020412451489549364,-0.02416934342262275,-0.7768341478544724,0.517653368567137,-0.13610696427131738
2.1791375016572987,2.8062402964543964,1.5950096629049888,-1.34139574512171,-0.34625739390452615,0.760480435689714,0.09780861441093985,-0.017184478731359847,-0.02600411291249773,-0.7638176488783217,0.5357000366519828,-0.12685153894445483
2.181510806117198,2.810360844236585,1.5907877348316029,-1.3667836900277708,-0.3671046629175685,0.7267793116835494,0.09990702115921589,-0.013816081699614235,-0.027526302116976608,-0.7505968967711751,0.5535180446419444,-0.1152575691153341
2.184231160464082,2.814932379088679,1.5862572080879955,-1.3935350841664056,-0.3883429202156081,0.6958054381530097,0.10219756314093882,-0.010312729762541916,-0.028725103878592406,-0.737310834678225,0.5710294565667889,-0.10109088401968497
2.1873435756429322,2.8199625220617874,1.5814147309857378,-1.4219591123086526,-0.4098988900271665,0.6675367248121148,0.10467509799345988,-0.006680811669094577,-0.02959182993075213,-0.72410569687424,0.5881534699022163,-0.08437545487717825
2.1908933098907206,2.8254583488296285,1.5762576165685818,-1.4523690498564972,-0.4316960423372824,0.641966339667325,0.1073330615232858,-0.0029277002869401974,-0.030119532588698116,-0.7111317535645416,0.6048126690971862,-0.06525718702634539
2.1949255637939786,2.831426147736518,1.5707837778140166,-1.4850742124320215,-0.4536554650586193,0.6190996347526209,0.11016339168273194,0.0009382114913750071,-0.030302783308735974,-0.6985409088304558,0.620936839658286,-0.04394796992856972
2.1994850630636535,2.837871094294542,1.5649917776187694,-1.5203767418257108,-0.47569300629417977,0.5989521274606797,0.11315653069797271,0.004905741098104479,-0.030137416567949535,-0.6864854437368263,0.6364645536350914,-0.020656661366854075
2.204615413139723,2.8447967965907353,1.5588810781015652,-1.5585737879395816,-0.49771324060633093,0.5815489618282658,0.11630138553571769,0.008958927052463907,-0.0296204772054928,-0.6751163159685445,0.6513419195460617,0.004468726845104901
2.2103584044963367,2.8522047486761686,1.5524524442253524,-1.5999535664994669,-0.5196074376792015,0.5669207580107237,0.11958528500693434,0.013079964195273448,-0.02875010964464131,-0.6645789738783865,0.6655199750605975,0.03099618988619743
2.216753149398503,2.8600936985588996,1.5457083148338082,-1.6447260144691391,-0.5412875526044625,0.5550673796886998,0.12299396614346306,0.01725160552284475,-0.027525309211779397,-0.6550033095918125,0.678958798996138,0.057650343361322826
2.2238347660415694,2.8684589344063047,1.538652982263126,-1.6929723289200387,-0.5627076807380309,0.5459296860026095,0.12651170315145163,0.021458810216713045,-0.025945520278239462,-0.646484772363989,0.6916391543995838,0.08315038636265884
2.231632825842246,2.8772915765973277,1.531292791820847,-1.744652593266534,-0.5838576525188532,0.5393898451255357,0.13012156062876157,0.025688784728854504,-0.024010205567947765,-0.6390721505811161,0.7035666236606343,0.10646202450222633
2.240169757943836,2.886577971286895,1.523636451769767,-1.7996285699784875,-0.6047546909631722,0.5352809419480677,0.1338056956219013,0.02993056072034612,-0.021718506070102787,-0.6327639803963105,0.7147687823290694,0.12686698461867374
2.2494593403794623,2.8962992612807246,1.515695446160238,-1.857693346026932,-0.6254357413566395,0.5334020626907261,0.1375456604443501,0.03417432947525995,-0.019069037684527404,-0.6275117668530528,0.7252896079130616,0.14396855065926698
2.2595053821866946,2.906431180197168,1.5074845239226087,-1.9186016506519203,-0.6459513991970186,0.5335354604929927,0.1413226870927627,0.0384107119178558,-0.016059825902535303,-0.6232280395081358,0.7351836126849723,0.15764657050798045
