x,y,z,phi,theta,psi,u,v,w,p,q,r
0.9999641478396272,3.9999504396568972,-1.0003643026021307,-3.141145694491206,0.00038087382074381004,-0.0003263335815892247,-0.0007130116971631105,-0.0009854555994613025,-0.007260498474439062,-0.006450837500179706,-0.00762910920626917,-0.008896331968650306
0.9998232068393229,3.9997579548018916,-1.0014342495314046,-3.139380491498903,0.0018578277971645907,-0.0015608675284771605,-0.0020731300767751755,-0.0028329633746303944,-0.014105836410936221,-0.01803565820562863,-0.0219640926471456,-0.026308625239271157
0.9995107975594002,3.9993380772912777,-1.0031733820673217,-3.135496539296365,0.005081065933254747,-0.004122422948305007,-0.004016689616389238,-0.005430628122804657,-0.020606042969452357,-0.032986035265138366,-0.042462417465484584,-0.0512772356075094
0.9989603484928145,3.998612369412676,-1.0055549851967085,-3.1288294306906614,0.010673850674172147,-0.008222103165116765,-0.00648358527567752,-0.008677005998484168,-0.02683029945259012,-0.04931501854407304,-0.06882457753522744,-0.08225487957207613
0.9981019535101167,3.9975060853482955,-1.0085635164725422,-3.118910515554698,0.01925568707232439,-0.013845127785914568,-0.009418010480063655,-0.012480719661634979,-0.03284442720484109,-0.06512713756906034,-0.10088279821517085,-0.11722655024473895
0.9968594076671746,3.995946411003277,-1.0121955826968954,-3.105504810404312,0.031448330072453734,-0.020766076775666494,-0.012769075041526171,-0.016760277884605677,-0.03870754901732479,-0.07891923561088258,-0.13850126937686788,-0.15396527438121108
0.9951477387334147,3.993861269985225,-1.0164602970872076,-3.088614414250681,0.047864669786654046,-0.0285950918429964,-0.0164914285024105,-0.021443675245756216,-0.04446888987342858,-0.08978729953625247,-0.18148449555672283,-0.19035667078761057
0.9928715430548727,3.991178591787108,-1.0213790514808192,-3.0684448372846465,0.06908468402266621,-0.03684450105870625,-0.020545795543723683,-0.026467675222052588,-0.05016556297135117,-0.09749739712773306,-0.22950109857189402,-0.2246825957939244
0.9899243745067582,3.9878258426596664,-1.0269848505935903,-3.0453434948168634,0.09562589473255412,-0.04500168896173288,-0.024899213028715138,-0.03177700374805351,-0.0558217875232244,-0.10243208681631788,-0.28203781778901543,-0.2557749968774091
0.9861893515521968,3.983729571726625,-1.0333213681174416,-3.0197268927933165,0.12791635073653107,-0.052595152654942134,-0.029524774620272465,-0.03732376379288264,-0.06144952796250608,-0.10545584134035267,-0.33839721355908703,-0.283017785997898
0.9815410582050775,3.9788147590900493,-1.0404418296830396,-2.992012923457159,0.16627606227984826,-0.05924468126909356,-0.034400840864395404,-0.043067219854803475,-0.06705019829542767,-0.10774542066694485,-0.3977405810306939,-0.3062377304060254
0.9758487237914175,3.9730038632019413,-1.0484077451933316,-2.9625690489575365,0.21090918740172637,-0.06469114834024181,-0.039509880658755825,-0.04897385366587011,-0.07261689835895299,-0.11061536306111246,-0.4591603112011095,-0.32555048646719037
0.9689805760857241,3.966215614706943,-1.0572874308375557,-2.9316799226969166,0.26190558460784774,-0.06880497862365684,-0.04483723834877835,-0.055017415759440046,-0.07813662057513988,-0.11535127483520172,-0.5217542808070582,-0.34121643801170004
0.9608091863803487,3.958363753654074,-1.067154193266815,-2.8995321973001986,0.3192478901554121,-0.07157451158712108,-0.05037007623340722,-0.06117865973690862,-0.08359194247129029,-0.12305462204278655,-0.5846767794913191,-0.3535344311734336
0.9512175849294205,3.9493560371507743,-1.078083998327216,-2.8662109699949583,0.3828198166815444,-0.07307653846967634,-0.056096555407238444,-0.06744453947423118,-0.08896186750103462,-0.134504616889832,-0.6471544169033799,-0.3627785133995967
0.9401059224226876,3.9390939441126527,-1.0901524247348164,-2.8317010792758412,0.45241282296335106,-0.07343181797213681,-0.06200511894689754,-0.07380682786464855,-0.09422168139026801,-0.1500519249768715,-0.7084721141292649,-0.36917019379016547
0.9273984603808897,3.9274735570358557,-1.1034307296192962,-2.795886206689873,0.5277306820057497,-0.07274864523537454,-0.06808365473456,-0.08026031025036459,-0.09934195686330245,-0.16956758611858405,-0.7679445701840809,-0.37287505560461287
0.9130506437781571,3.9143880764152827,-1.1179809537611265,-2.758538166514758,0.6083933577698435,-0.07105699920313777,-0.07431837472319258,-0.0868008322855777,-0.10428715139117566,-0.19246944265525293,-0.8248895542063116,-0.374013720407997
0.8970558972996966,3.8997322836331896,-1.1338501830180858,-2.719286396877845,0.6939419884928797,-0.06823260445805394,-0.08069239933107554,-0.09342347276811797,-0.10901452184543137,-0.21783176258240924,-0.8786138431177118,-0.37267998160549476
0.8794515830899668,3.8834089971927317,-1.1510643295124388,-2.677550953571394,0.783845549311101,-0.0639010747221519,-0.0871841933950971,-0.10012097311805289,-0.1134741845303072,-0.24455596939857335,-0.9284153454475123,-0.36896163765134105
0.8603233126888375,3.86533719559774,-1.1696220235411745,-2.6324051574776073,0.8775075591548793,-0.05729084848408669,-0.09376609884800861,-0.10688238838025445,-0.11761095496340819,-0.27155643289289955,-0.9735993330130434,-0.3629615461724524
0.8398066223842907,3.8454610811767913,-1.1894893271149565,-2.5822891755932322,0.9742684588992114,-0.046953731590444456,-0.10040322937530312,-0.11369186130565882,-0.12136811687026629,-0.29791099157033635,-1.0135038976780495,-0.35481763680269984
0.818085038286673,3.823759040219321,-1.2105959348313868,-2.524367892574192,1.073394404552411,-0.030140142956672278,-0.10705294566081176,-0.12052750969117186,-0.12469268082706621,-0.3229447172968556,-1.0475293834450263,-0.3447212303882736
0.7953838650265697,3.8002513030661724,-1.2328333426208316,-2.4529092638790018,1.1740279853771582,-0.0011978746938836485,-0.11366504589652306,-0.12736058204245224,-0.12754125277254777,-0.34624515691751934,-1.0751674603361452,-0.3329331859081674
0.7719596315488877,3.775005174641038,-1.2560552171589114,-2.3544126873794418,1.2750129672099613,0.05328196747727947,-0.12018270785235333,-0.13415514926149874,-0.1298855082181478,-0.36763060869416403,-1.0960266960165221,-0.31979725412041693
0.7480859009878403,3.748136985035018,-1.280079973780432,-2.1887033334528794,1.3741581896080697,0.17335891848110105,-0.12654412128553594,-0.14086858414187245,-0.1317164526136346,-0.3871004898725021,-1.109852350905127,-0.30574958137942576
0.7240369039490248,3.71981034851,-1.3046954116788232,-1.7839886878117246,1.463562573651013,0.5306810631226824,-0.13268466121661332,-0.14745294770460482,-0.13304701080926198,-0.4047905722091169,-1.1165386926133034,-0.291322653661917
0.7000709781167928,3.6902308326483433,-1.329665154623822,-0.5974456582257773,1.4933247725215217,1.6678972036477446,-0.13853938375811323,-0.15385721581643239,-0.13391287311688432,-0.42094375042333376,-1.116132621268357,-0.27714127838825914
0.6764159435294331,3.65963762886181,-1.3547365682695403,0.15567791243621867,1.4234878199606622,2.3695575871276815,-0.14404558804276787,-0.160030106516224,-0.13437182297651953,-0.4358960864657228,-1.108828056526333,-0.2639078360696589
0.6532582696728747,3.628293190441866,-1.3796497410077844,0.40135738343345,1.3306450695132686,2.561411672505244,-0.1491451893630385,-0.16592314953631018,-0.1345019350902135,-0.4500712945952043,-1.0949513860370679,-0.2523744217021077
0.6307372691212578,3.5964720006226663,-1.4041470213760958,0.5265766137908094,1.2352146104771449,2.6301975012702674,-0.15378669155730182,-0.17149359220281254,-0.13439906183639108,-0.4639746296188787,-1.0749391861130029,-0.243300965104549
0.6089447410055957,3.5644496290053542,-1.427982526824928,0.6107267385721125,1.1407862262789554,2.655044710423898,-0.15792662563913026,-0.1767067618437182,-0.1341739476512534,-0.47817800652059333,-1.0493101856250941,-0.23740099685145674
0.5879296758196245,3.532493051204359,-1.4509310165599527,0.6762894366056026,1.04858759423204,2.6581624911093504,-0.1615304212463813,-0.18153759477461645,-0.13394916975911486,-0.49329096532919986,-1.0186338843179514,-0.235280133633977
0.5677069851797092,3.500852904564377,-1.472795583438627,0.731777134003185,0.9592439237229082,2.6477855986731007,-0.16457268988222737,-0.18597113489196437,-0.13385592888698697,-0.5099165265083508,-0.9834981086511542,-0.23737289606292686
0.5482688282886695,3.4697580040147553,-1.493413775083592,0.7810442847642562,0.873133361705202,2.6274933783471646,-0.16703694413647077,-0.19000193963360193,-0.13403056317133766,-0.5285947908530654,-0.9444776282311138,-0.2438846148169031
0.529596985355889,3.439412105450268,-1.51266198733868,0.8260519695489309,0.7904889514735394,2.598984943611395,-0.16891486594055832,-0.1936325102858549,-0.13461057653903077,-0.5497401287399388,-0.9021057327357365,-0.2547479711504012
0.5116748350921829,3.4099926219548387,-1.5304582338871378,0.8678829677909022,0.7114374819054019,2.56310859360435,-0.17020529923902722,-0.19687104614226464,-0.13572999503300442,-0.5735808940948731,-0.8568502205019116,-0.2696055957005897
0.49449775631851434,3.3816508035556425,-1.5467636102060098,0.9071728610750012,0.6360208609126405,2.5203117473195484,-0.1709130549132153,-0.1997289150056378,-0.13751393823006716,-0.6001130224150418,-0.8090949855129477,-0.28782369609219377
0.47808111070305026,3.3545127677156485,-1.5615828844242385,0.9443102101211535,0.5642130986328144,2.4708649022384908,-0.17104801504176884,-0.20221844533255456,-0.14007276790920076,-0.6290785802012729,-0.7591271870235522,-0.30855255195737
0.4624653393476365,3.3286807249255745,-1.5749646099195447,0.9795309076962196,0.49593563466930357,2.414984590402172,-0.17062474527804158,-0.20435148416639531,-0.14349644741794274,-0.6599782831170151,-0.7071272048342966,-0.33082769782995425
0.4477180769305253,3.3042338292552516,-1.5870009683201551,1.0129585589867114,0.43107011172032594,2.352905528108514,-0.16966238714513177,-0.20613881761422229,-0.14784963905507786,-0.6921171133898101,-0.6531597798415093,-0.35367670323949246
0.4339334988227585,3.2812282447945607,-1.5978273120497557,1.0446160274247402,0.36946649363484685,2.2849241598698193,-0.16818501632367996,-0.20759044447832492,-0.153168347689564,-0.7246729889595345,-0.5971619165626223,-0.3762157909196928
0.42122937682591494,3.2596962105730176,-1.607621165388297,1.0744218731172628,0.3109444547875113,2.211424116276517,-0.166222471816374,-0.20871646342639563,-0.15945866163699984,-0.7567732517553731,-0.5389214058358016,-0.3977185483972154
0.4097425212655514,3.239644101059525,-1.6166003247810756,1.1021799938399408,0.25528718127308525,2.132889305323406,-0.1638116100988499,-0.2095282380122966,-0.16669771526232724,-0.7875633250374995,-0.47804054059274076,-0.41764521037679797
0.3996234115271057,3.2210496567597477,-1.6250197090481677,1.127566509888126,0.20222802920709615,2.0499081823818868,-0.16099815229990397,-0.21003958777237847,-0.17483686134949308,-0.8162578250899507,-0.41387297919606775,-0.4356399623566405
0.39103087480753024,3.203858659029499,-1.6331667338574507,1.1501134592744953,0.1514310629914044,1.9631720084723288,-0.1578394192435542,-0.2102678757576667,-0.183806903141964,-0.8421711986505035,-0.3454133890331602,-0.45150735524401314
0.3841276890944376,3.1879813259119962,-1.64135518414844,1.1691836914783387,0.10246587438059129,1.8734704515112148,-0.15440861349228027,-0.2102350139217146,-0.19352536886891825,-0.8647305825777689,-0.271099546712251,-0.4651798559510416
0.3790780165908458,3.1732885789892666,-1.6499177953302062,1.1839237690255844,0.0547745062483278,1.7816898407780024,-0.1508021427938112,-0.2099685535987866,-0.20390629538090047,-0.8834764314266822,-0.18844096756324674,-0.4766861786710478
0.376047734576602,3.1596080136647284,-1.6591980060480653,1.1931675367393595,0.007622343362805317,1.688823898138796,-0.14715356768352905,-0.2095031920653309,-0.2148741434968918,-0.8980569020760291,-0.0932740678650174,-0.4861272537696042
0.37520928225576683,3.146718739616672,-1.6695416099316145,1.1952300884939517,-0.03998862280695903,1.596017774010332,-0.14366311144436106,-0.20888330843991024,-0.2263863525121614,-0.9082212981151099,0.021848040973330256,-0.49366594507940537
0.3767535799734595,3.1343438666986922,-1.681288466686905,1.1877578672253042,-0.08948559170033432,1.5046731473763733,-0.14050896801304433,-0.20816681159195935,-0.23844835997291272,-0.9138159122634122,0.16059813463859382,-0.49951889596643867
0.38090174706432345,3.1221526967367863,-1.69475159083308,1.1692655687524895,-0.14272694873088443,1.4164315726737533,-0.13755391923955265,-0.20742159478427366,-0.25097832340297715,-0.9147700740966398,0.30512132613332615,-0.5038496030619208
0.38789453996042866,3.109790386179954,-1.7101722284326772,1.1403421697839469,-0.20137742018531468,1.3328753487607146,-0.1345750573575613,-0.20670966638773877,-0.26371470510071643,-0.911070581852172,0.43698817867144835,-0.506709015403145
0.3979636583988336,3.096916991496109,-1.7276801309549632,1.1028877559509782,-0.26633680832600515,1.2552859280478343,-0.13142089301147103,-0.20607385451828844,-0.276294956816012,-0.9027557238817953,0.5478651775077599,-0.5080938157505708
0.41130155480432073,3.0832391802088104,-1.7472759432625762,1.058923330972537,-0.33770564959015004,1.1846282868168163,-0.1280388732028818,-0.20553329108730803,-0.2883609901763227,-0.889927544174796,0.6386905843791147,-0.5080076216099739
0.42803956027144346,3.0685297544297665,-1.7688324264893511,1.009832953866223,-0.4150720079296353,1.1216961220435107,-0.12443543649625013,-0.20508564711533067,-0.29962062589114613,-0.8727656822819322,0.7143345271202082,-0.5064864982353738
0.44823450431017664,3.052637963054776,-1.7921055011951093,0.9561448557661423,-0.49778914201789104,1.0672985907113246,-0.12063458291907445,-0.2047117504668962,-0.30985796718431136,-0.8515317519914539,0.7795197821294636,-0.5035950319224398
0.47186004693131667,3.0354954255128166,-1.8167491111929854,0.8975631373420535,-0.5851167536153867,1.0224400099622115,-0.11665861352544168,-0.20437978827319078,-0.3189186821329295,-0.8265634816164527,0.837365005005054,-0.49941364299017693
0.4988003109720459,3.0171200571519976,-1.8423322311746677,0.8329879846930452,-0.6762493811929479,0.988520243296212,-0.11252466406883695,-0.20404837375542692,-0.32669208860728927,-0.798262754155901,0.8894527028984566,-0.4940293067483036
0.5288457631462785,2.9976177337787786,-1.868358335475201,0.7603795868091504,-0.7702801058954988,0.9676271697082567,-0.10824725695354662,-0.20366879616360706,-0.3330986102374412,-0.7670813275031303,0.9363380146533795,-0.48753200693965054
0.5616925743127359,2.9771802663065388,-1.8942876853668265,0.6763574492571484,-0.8661172254641788,0.9630341683055096,-0.10384171446972215,-0.20318696552106666,-0.33808318758581024,-0.7335061363661103,0.9780106221566848,-0.4800151455361832
0.5969468395918708,2.9560783623847353,-1.9195620939208113,0.5753608605555619,-0.9623300403535351,0.9800982174086537,-0.09932674733858804,-0.2025454150077412,-0.3416127252299565,-0.6980447713592736,1.0141999850485253,-0.4715777062783527
0.634134526273761,2.934648993205253,-1.9436311068897687,0.4480367765782458,-1.056843473503921,1.027908902819102,-0.09472598415354604,-0.20168552079874744,-0.34367563585536254,-0.661211241449084,1.0445516554845602,-0.4623266346762332
0.6727172243843234,2.913277504735145,-1.9659780421422168,0.27839855134521224,-1.1462959001486255,1.1221543102728901,-0.0900685961937494,-0.20054993829224368,-0.3442821336188254,-0.6235121183455877,1.0687241445989146,-0.45237854177848336
0.7121129335164796,2.8923756671805516,-1.986144102281642,0.04041905411754827,-1.2247101179159978,1.2885450314423401,-0.08538919584883875,-0.19908514730533045,-0.3434644550583577,-0.5854333203662262,1.0864423545419832,-0.4418602530488156
0.7517203814843118,2.872357508141952,-2.0037488053068735,-0.29665635815398755,-1.2814074624215825,1.557513273720402,-0.08072714614820063,-0.19724393846003108,-0.3412765341394827,-0.5474279666689367,1.0975275198310674,-0.43090798211006376
0.7909448493637251,2.8536151381413175,-2.0185052442487152,-0.7242287202507479,-1.3016035426769033,1.9201402175672926,-0.0761254002121703,-0.19498765044571084,-0.33779288226020465,-0.5099058529111095,1.101913110512133,-0.4196651109853884
0.8292232544022715,2.8364968061390092,-2.0302291491024507,-1.1443737122185673,-1.2779326249964351,2.278190125472907,-0.07162899666978449,-0.19228797788613997,-0.3331065855654331,-0.4732251462679857,1.099650845047389,-0.4082787405846883
0.8660463489098736,2.821289122298438,-2.0388413200982027,-1.4679820071125076,-1.220089734678655,2.5422546631675447,-0.06728335358638397,-0.18912820690603654,-0.3273264632001548,-0.43768684531525326,1.0909087980840448,-0.39689534489913014
0.9009763012961716,2.8082048175027814,-2.0443636434337593,-1.6950678000739972,-1.1430045502008492,2.712064093146976,-0.06313251392279419,-0.18550379283819757,-0.3205735378309775,-0.40353241102954146,1.0759629508536601,-0.3856559829584475
0.9336585492421511,2.7973766841752834,-2.046909494229257,-1.85704482845675,-1.0567612458111593,2.818765079314707,-0.05921749192229976,-0.18142226187836236,-0.3129770490147921,-0.3709447577506382,1.0551835126905393,-0.3746915785900875
0.9638275339904133,2.7888575934482076,-2.046669792158201,-1.9786737518222899,-0.9668720407296694,2.886869267123325,-0.0555748501069548,-0.17690248513899942,-0.30467028368409343,-0.34005254872919644,1.0290174761046502,-0.36411875164223534
0.9913066098469775,2.782625836479979,-2.043896244239202,-2.0749774700213823,-0.8763789596895016,2.931169388573577,-0.05223560378081526,-0.17197342937315407,-0.2957865027377152,-0.3109375228218031,0.997968959774579,-0.35403658898281387
1.0160029731703464,2.7785945800791088,-2.0388833717185304,-2.1547711143884825,-0.7870951781265897,2.9602696785419567,-0.049224509267890064,-0.1666725273470047,-0.2864552127696613,-0.2836444416603626,0.9625788655388199,-0.34452459829941656
1.0378988052099503,2.776624002498575,-2.0319507886389405,-2.223357437124699,-0.700195315724821,2.979281266837383,-0.04655975016193125,-0.16104382890052674,-0.27679897475648385,-0.2581932221397121,0.9234052222249691,-0.33564192938153564
1.0570399612448378,2.7765346728723896,-2.02342692977691,-2.284051804842025,-0.616494111860879,2.9913465818033638,-0.044252998106658885,-0.15513609240595855,-0.26693086986315,-0.2345929078073773,0.881005337732658,-0.32742780064179877
1.0735234901396116,2.7781209114816128,-2.0136350761793422,-2.3390091730911107,-0.5365843861049076,2.998464865887418,-0.04230979506369681,-0.14900095898403615,-0.2569526681771954,-0.21285729685896507,0.835920572904846,-0.31990295388243123
1.0874850852501081,2.7811631518940625,-2.0028821596566964,-2.3896803083991616,-0.4609099130013383,3.0019456953150856,-0.04073018453327652,-0.14269132313918,-0.24695367953711514,-0.19302220476633103,0.7886642340140223,-0.313071885264103
1.0990873097243885,2.7854386526301176,-1.991450493634021,-2.437072236827501,-0.3898068903937255,3.002665035515406,-0.0395095096139981,-0.13625997766663692,-0.23701021394954785,-0.17516437242147243,0.7397127968403637,-0.30692556290890965
1.1085091614070852,2.790730219607361,-1.9795923095014027,-2.481902827073982,-0.32352958432636414,3.0012132801378,-0.03863929442343965,-0.12975857055961137,-0.2271855464259121,-0.1594217737993482,0.6895004437361754,-0.30144433243630236
1.1159372856488674,2.796832863668177,-1.9675267894895097,-2.5246962778550164,-0.26226766981099625,2.997981689068699,-0.03810813030915412,-0.12323686859678316,-0.21753026789163218,-0.14601437712176432,0.6384167435136343,-0.29660072110669
1.121558933570118,2.80355851029731,-1.9554391794188357,-2.565844456163261,-0.20615902345370984,2.9932121131904936,-0.03790249790023027,-0.11674227810995781,-0.20808290722263206,-0.13526322981385522,0.5868072175610263,-0.2923618720723027
1.1255566072099201,2.81073899856708,-1.9434815257272773,-2.605647637340162,-0.15529986799604556,2.9870240999742603,-0.03800745986150734,-0.1103195270434172,-0.19887072048260415,-0.12760352942563705,0.5349765850904881,-0.28869113036486854
